Temp	Magnetization	Heat capacity	Energy
1.000000	0.999512	4.152628E-009	-3.999999
1.045226	0.999511	7.596955E-009	-3.999998
1.090452	0.999511	1.317315E-008	-3.999996
1.135678	0.999511	2.179432E-008	-3.999993
1.180905	0.999510	3.459665E-008	-3.999988
1.226131	0.999509	5.294760E-008	-3.999980
1.271357	0.999508	7.844725E-008	-3.999968
1.316583	0.999505	1.129252E-007	-3.999950
1.361809	0.999502	1.584355E-007	-3.999925
1.407035	0.999498	2.172530E-007	-3.999891
1.452261	0.999492	2.918720E-007	-3.999844
1.497487	0.999484	3.850095E-007	-3.999781
1.542714	0.999474	4.996104E-007	-3.999700
1.587940	0.999461	6.388545E-007	-3.999595
1.633166	0.999444	8.061642E-007	-3.999461
1.678392	0.999423	1.005219E-006	-3.999294
1.723618	0.999397	1.239996E-006	-3.999087
1.768844	0.999365	1.514869E-006	-3.998832
1.814070	0.999327	1.834807E-006	-3.998523
1.859296	0.999280	2.205721E-006	-3.998149
1.904523	0.999224	2.634932E-006	-3.997702
1.949749	0.999157	3.131642E-006	-3.997169
1.994975	0.999077	3.707144E-006	-3.996537
2.040201	0.998983	4.374347E-006	-3.995790
2.085427	0.998873	5.146247E-006	-3.994910
2.130653	0.998742	6.033352E-006	-3.993876
2.175879	0.998590	7.040905E-006	-3.992667
2.221106	0.998413	8.167720E-006	-3.991260
2.266332	0.998207	9.408515E-006	-3.989634
2.311558	0.997972	1.075940E-005	-3.987767
2.356784	0.997703	1.222176E-005	-3.985640
2.402010	0.997398	1.379696E-005	-3.983232
2.447236	0.997054	1.546905E-005	-3.980523
2.492462	0.996671	1.718747E-005	-3.977498
2.537688	0.996247	1.887348E-005	-3.974157
2.582915	0.995783	2.046314E-005	-3.970512
2.628141	0.995283	2.196210E-005	-3.966581
2.673367	0.994747	2.346327E-005	-3.962375
2.718593	0.994173	2.510643E-005	-3.957880
2.763819	0.993555	2.701186E-005	-3.953057
2.809045	0.992888	2.923394E-005	-3.947852
2.854271	0.992163	3.174603E-005	-3.942208
2.899497	0.991374	3.443940E-005	-3.936079
2.944724	0.990518	3.713586E-005	-3.929448
2.989950	0.989598	3.964614E-005	-3.922332
3.035176	0.988620	4.187788E-005	-3.914777
3.080402	0.987588	4.391176E-005	-3.906829
3.125628	0.986505	4.595291E-005	-3.898508
3.170854	0.985368	4.818841E-005	-3.889792
3.216080	0.984171	5.068346E-005	-3.880638
3.261307	0.982906	5.339384E-005	-3.871001
3.306533	0.981569	5.624683E-005	-3.860847
3.351759	0.980156	5.919105E-005	-3.850156
3.396985	0.978666	6.216552E-005	-3.838915
3.442211	0.977099	6.504504E-005	-3.827130
3.487437	0.975457	6.769978E-005	-3.814831
3.532663	0.973747	7.020606E-005	-3.802058
3.577889	0.971965	7.296641E-005	-3.788805
3.623116	0.970099	7.644358E-005	-3.774979
3.668342	0.968127	8.063018E-005	-3.760437
3.713568	0.966038	8.482584E-005	-3.745105
3.758794	0.963845	8.816588E-005	-3.729065
3.804020	0.961572	9.049360E-005	-3.712505
3.849246	0.959237	9.252875E-005	-3.695556
3.894472	0.956832	9.510360E-005	-3.678189
3.939698	0.954339	9.846814E-005	-3.660271
3.984925	0.951737	1.023845E-004	-3.641673
4.030151	0.949014	1.065744E-004	-3.622321
4.075377	0.946167	1.108547E-004	-3.602182
4.120603	0.943192	1.151056E-004	-3.581253
4.165829	0.940089	1.194252E-004	-3.559533
4.211055	0.936849	1.240327E-004	-3.536988
4.256281	0.933463	1.286725E-004	-3.513576
4.301508	0.929938	1.325441E-004	-3.489364
4.346734	0.926302	1.352834E-004	-3.464542
4.391960	0.922577	1.375532E-004	-3.439272
4.437186	0.918761	1.402738E-004	-3.413550
4.482412	0.914832	1.438126E-004	-3.387250
4.527638	0.910765	1.482100E-004	-3.360216
4.572864	0.906529	1.535067E-004	-3.332283
4.618090	0.902097	1.593656E-004	-3.303307
4.663317	0.897462	1.649832E-004	-3.273255
4.708543	0.892638	1.699085E-004	-3.242226
4.753769	0.887638	1.743132E-004	-3.210337
4.798995	0.882474	1.781150E-004	-3.177681
4.844221	0.877164	1.808916E-004	-3.144412
4.889447	0.871733	1.832096E-004	-3.110693
4.934673	0.866164	1.869466E-004	-3.076446
4.979899	0.860385	1.934160E-004	-3.041257
5.025126	0.854313	2.016524E-004	-3.004674
5.070352	0.847920	2.093402E-004	-2.966583
5.115578	0.841236	2.154066E-004	-2.927220
5.160804	0.834290	2.208501E-004	-2.886815
5.206030	0.827074	2.267964E-004	-2.845361
5.251256	0.819569	2.325932E-004	-2.802796
5.296482	0.811799	2.366376E-004	-2.759299
5.341709	0.803823	2.387884E-004	-2.715245
5.386935	0.795669	2.408082E-004	-2.670838
5.432161	0.787298	2.446484E-004	-2.625912
5.477387	0.778620	2.510459E-004	-2.580037
5.522613	0.769544	2.591753E-004	-2.532793
5.567839	0.760021	2.674490E-004	-2.484007
5.613065	0.750042	2.750358E-004	-2.433750
5.658291	0.739599	2.821805E-004	-2.382135
5.703518	0.728674	2.889633E-004	-2.329224
5.748744	0.717268	2.945399E-004	-2.275151
5.793970	0.705417	2.984670E-004	-2.220207
5.839196	0.693134	3.027982E-004	-2.164551
5.884422	0.680300	3.109297E-004	-2.107781
5.929648	0.666681	3.234163E-004	-2.049075
5.974874	0.652086	3.369226E-004	-1.987895
6.020101	0.636483	3.477785E-004	-1.924417
6.065327	0.619954	3.544038E-004	-1.859311
6.110553	0.602608	3.574075E-004	-1.793343
6.155779	0.584442	3.606269E-004	-1.726886
6.201005	0.565180	3.698319E-004	-1.659356
6.246231	0.544257	3.869762E-004	-1.589360
6.291457	0.521085	4.075616E-004	-1.515770
6.336683	0.495238	4.269416E-004	-1.438454
6.381910	0.466187	4.471402E-004	-1.357542
6.427136	0.432895	4.698369E-004	-1.272608
6.472362	0.394015	4.859129E-004	-1.183875
6.517588	0.348509	4.829169E-004	-1.093766
6.562814	0.296901	4.499026E-004	-1.006807
6.608040	0.243656	3.795419E-004	-0.929451
6.653266	0.196020	2.889394E-004	-0.867471
6.698492	0.158550	2.078771E-004	-0.821767
6.743719	0.131198	1.497294E-004	-0.789005
6.788945	0.111678	1.120160E-004	-0.765025
6.834171	0.097614	8.811427E-005	-0.746654
6.879397	0.087233	7.268715E-005	-0.731860
6.924623	0.079344	6.236175E-005	-0.719412
6.969849	0.073173	5.515770E-005	-0.708565
7.015075	0.068216	4.992353E-005	-0.698856
7.060302	0.064136	4.597804E-005	-0.689989
7.105528	0.060708	4.290642E-005	-0.681768
7.150754	0.057773	4.044750E-005	-0.674055
7.195980	0.055223	3.843092E-005	-0.666755
7.241206	0.052977	3.674164E-005	-0.659797
7.286432	0.050977	3.529939E-005	-0.653127
7.331658	0.049180	3.404654E-005	-0.646707
7.376884	0.047554	3.294074E-005	-0.640504
7.422111	0.046073	3.195034E-005	-0.634496
7.467337	0.044718	3.105137E-005	-0.628661
7.512563	0.043474	3.022561E-005	-0.622987
7.557789	0.042329	2.945910E-005	-0.617459
7.603015	0.041270	2.874120E-005	-0.612069
7.648241	0.040292	2.806376E-005	-0.606808
7.693467	0.039384	2.742061E-005	-0.601670
7.738693	0.038542	2.680711E-005	-0.596648
7.783920	0.037759	2.621975E-005	-0.591736
7.829146	0.037030	2.565592E-005	-0.586932
7.874372	0.036351	2.511366E-005	-0.582230
7.919598	0.035716	2.459147E-005	-0.577626
7.964824	0.035123	2.408817E-005	-0.573118
8.010050	0.034567	2.360280E-005	-0.568701
8.055276	0.034045	2.313449E-005	-0.564372
8.100503	0.033553	2.268246E-005	-0.560128
8.145729	0.033090	2.224592E-005	-0.555967
8.190955	0.032653	2.182412E-005	-0.551886
8.236181	0.032238	2.141629E-005	-0.547881
8.281407	0.031845	2.102169E-005	-0.543950
8.326633	0.031470	2.063963E-005	-0.540092
8.371859	0.031113	2.026943E-005	-0.536303
8.417085	0.030772	1.991050E-005	-0.532581
8.462312	0.030445	1.956231E-005	-0.528925
8.507538	0.030131	1.922442E-005	-0.525333
8.552764	0.029829	1.889644E-005	-0.521802
8.597990	0.029537	1.857808E-005	-0.518331
8.643216	0.029256	1.826907E-005	-0.514919
8.688442	0.028983	1.796923E-005	-0.511562
8.733668	0.028719	1.767840E-005	-0.508261
8.778894	0.028462	1.739644E-005	-0.505012
8.824121	0.028212	1.712322E-005	-0.501815
8.869347	0.027969	1.685861E-005	-0.498667
8.914573	0.027732	1.660247E-005	-0.495568
8.959799	0.027501	1.635466E-005	-0.492516
9.005025	0.027276	1.611498E-005	-0.489508
9.050251	0.027055	1.588324E-005	-0.486545
9.095477	0.026840	1.565920E-005	-0.483623
9.140704	0.026630	1.544262E-005	-0.480743
9.185930	0.026424	1.523322E-005	-0.477902
9.231156	0.026223	1.503069E-005	-0.475099
9.276382	0.026027	1.483473E-005	-0.472332
9.321608	0.025834	1.464500E-005	-0.469602
9.366834	0.025647	1.446116E-005	-0.466906
9.412060	0.025463	1.428286E-005	-0.464244
9.457286	0.025284	1.410977E-005	-0.461614
9.502513	0.025109	1.394152E-005	-0.459016
9.547739	0.024938	1.377778E-005	-0.456449
9.592965	0.024771	1.361822E-005	-0.453911
9.638191	0.024608	1.346249E-005	-0.451403
9.683417	0.024449	1.331030E-005	-0.448923
9.728643	0.024294	1.316135E-005	-0.446471
9.773869	0.024143	1.301535E-005	-0.444047
9.819095	0.023996	1.287204E-005	-0.441649
9.864322	0.023852	1.273117E-005	-0.439278
9.909548	0.023713	1.259252E-005	-0.436932
9.954774	0.023577	1.245590E-005	-0.434612
10.000000	0.023445	1.232111E-005	-0.432317
